# multipoles
# s[mm] polynom_b[n=1][T/m^n] polynom_b[n=5][T/m^n] polynom_b[n=9][T/m^n] polynom_b[n=13][T/m^n] polynom_b[n=17][T/m^n] 
+0.0000000000000000e+00 +4.7160304087439101e+01 -3.4870408045773474e+06 +2.3204688961512006e+14 -5.1187329837160286e+21 +3.4377050505755563e+28 
+1.0000000000000001e-01 +4.7160304088227903e+01 -3.4869227042751694e+06 +2.3198409990525516e+14 -5.1124056813175948e+21 +3.4203883669375244e+28 
+2.0000000000000001e-01 +4.7160304055105165e+01 -3.4865348148718206e+06 +2.3179507600059028e+14 -5.0936183998913425e+21 +3.3690010247088584e+28 
+3.0000000000000004e-01 +4.7160303934869710e+01 -3.4858267999025974e+06 +2.3147884830542803e+14 -5.0626642028039818e+21 +3.2843902486180093e+28 
+4.0000000000000002e-01 +4.7160303674320204e+01 -3.4847483208223456e+06 +2.3103444642462747e+14 -5.0198360695354530e+21 +3.1674030050080865e+28 
+5.0000000000000000e-01 +4.7160303220234276e+01 -3.4832490132901920e+06 +2.3046089345296216e+14 -4.9654264224860875e+21 +3.0188847405516109e+28 
+6.0000000000000009e-01 +4.7160302519419773e+01 -3.4812785503550321e+06 +2.2975722199486697e+14 -4.8997285024985545e+21 +2.8396831440670398e+28 
+7.0000000000000007e-01 +4.7160301518659232e+01 -3.4787865740939407e+06 +2.2892245679253488e+14 -4.8230348737666404e+21 +2.6306440497452531e+28 
+8.0000000000000004e-01 +4.7160300164742011e+01 -3.4757227338797585e+06 +2.2795562433424878e+14 -4.7356382460811411e+21 +2.3926136834777443e+28 
+9.0000000000000002e-01 +4.7160298404466062e+01 -3.4720366909557250e+06 +2.2685575427853562e+14 -4.6378316097252046e+21 +2.1264390530305214e+28 
+1.0000000000000000e+00 +4.7160296184623931e+01 -3.4676780999503974e+06 +2.2562187459274406e+14 -4.5299078082951239e+21 +1.8329667614621234e+28 
+1.1000000000000001e+00 +4.7160293472929183e+01 -3.4626403009510632e+06 +2.2426138220002312e+14 -4.4127729425781511e+21 +1.5146929915674823e+28 
+1.2000000000000002e+00 +4.7160290320805501e+01 -3.4570914114073403e+06 +2.2281515934204619e+14 -4.2897869807687906e+21 +1.1807145770361971e+28 
+1.3000000000000000e+00 +4.7160286800570653e+01 -3.4512432006265232e+06 +2.2133244863154878e+14 -4.1649224071063200e+21 +8.4177589635445104e+27 
+1.4000000000000001e+00 +4.7160282984587795e+01 -3.4453074959776313e+06 +2.1986250767123612e+14 -4.0421530071428366e+21 +5.0862491287165151e+27 
+1.5000000000000000e+00 +4.7160278945180082e+01 -3.4394960741835991e+06 +2.1845458105913397e+14 -3.9254514408569852e+21 +1.9200649485354545e+27 
+1.6000000000000001e+00 +4.7160274754707878e+01 -3.4340207593583264e+06 +2.1715792559830534e+14 -3.8187914267075632e+21 -9.7331574674620977e+26 
+1.7000000000000002e+00 +4.7160270485489249e+01 -3.4290933200166915e+06 +2.1602178354309562e+14 -3.7261454092367629e+21 -3.4864504301814184e+27 
+1.8000000000000000e+00 +4.7160266209864972e+01 -3.4249255559734162e+06 +2.1509540557126541e+14 -3.6514865840444051e+21 -5.5118755004205327e+27 
+1.9000000000000001e+00 +4.7160262000190386e+01 -3.4217292840232030e+06 +2.1442804638987156e+14 -3.5987884741269148e+21 -6.9421187901000529e+27 
+2.0000000000000000e+00 +4.7160257928803098e+01 -3.4197162996971505e+06 +2.1406895556566762e+14 -3.5720241788994721e+21 -7.6697193370759489e+27 
+2.1000000000000001e+00 +4.7160254056798145e+01 -3.4190300594325601e+06 +2.1405034952155203e+14 -3.5737559584727111e+21 -7.6255533252202219e+27 
+2.2000000000000002e+00 +4.7160250400420310e+01 -3.4195408287340221e+06 +2.1433635663653478e+14 -3.6009066853705848e+21 -6.8937341731795073e+27 
+2.3000000000000003e+00 +4.7160246964630190e+01 -3.4210504793804637e+06 +2.1487405799038241e+14 -3.6489871647195954e+21 -5.5967462233056087e+27 
+2.4000000000000004e+00 +4.7160243754420350e+01 -3.4233609255352449e+06 +2.1561054583153856e+14 -3.7135091833917591e+21 -3.8570465488666561e+27 
+2.5000000000000000e+00 +4.7160240774797167e+01 -3.4262740993695534e+06 +2.1649291698759156e+14 -3.7899849201983024e+21 -1.7970815466865603e+27 
+2.6000000000000001e+00 +4.7160238030738981e+01 -3.4295918972274861e+06 +2.1746825914033791e+14 -3.8739257671589870e+21 +4.6068086010945063e+26 
+2.7000000000000002e+00 +4.7160235527237575e+01 -3.4331162319973125e+06 +2.1848366410182725e+14 -3.9608434664207370e+21 +2.7937822288217805e+27 
+2.8000000000000003e+00 +4.7160233269277676e+01 -3.4366490075047258e+06 +2.1948622138132212e+14 -4.0462495626948767e+21 +5.0797587282710744e+27 
+2.9000000000000004e+00 +4.7160231261843727e+01 -3.4399921281413781e+06 +2.2042302075761397e+14 -4.1256556316074967e+21 +7.1961475307556216e+27 
+3.0000000000000000e+00 +4.7160229509935178e+01 -3.4429475170659772e+06 +2.2124115673427191e+14 -4.1945736500783245e+21 +9.0204966689765699e+27 
+3.1000000000000001e+00 +4.7160228006327671e+01 -3.4453598263306837e+06 +2.2189935291126847e+14 -4.2495166213119190e+21 +1.0458278640160553e+28 
+3.2000000000000002e+00 +4.7160226694892103e+01 -3.4472446163456598e+06 +2.2240284773574781e+14 -4.2910015272314696e+21 +1.1526660323668246e+28 
+3.3000000000000003e+00 +4.7160225507322139e+01 -3.4486602366715837e+06 +2.2276852432883347e+14 -4.3205477278627288e+21 +1.2270770275729256e+28 
+3.4000000000000004e+00 +4.7160224375296060e+01 -3.4496650159056620e+06 +2.2301326023017219e+14 -4.3396740891132423e+21 +1.2735723256957608e+28 
+3.5000000000000000e+00 +4.7160223230484199e+01 -3.4503172751856563e+06 +2.2315393143372897e+14 -4.3498993637036738e+21 +1.2966631304415983e+28 
+3.6000000000000001e+00 +4.7160222004562620e+01 -3.4506753404877558e+06 +2.2320741482838469e+14 -4.3527423626574551e+21 +1.3008607699380856e+28 
+3.7000000000000002e+00 +4.7160220629213946e+01 -3.4507975472787670e+06 +2.2319058987936288e+14 -4.3497221269954321e+21 +1.2906772171745585e+28 
+3.8000000000000003e+00 +4.7160219036105829e+01 -3.4507422116364795e+06 +2.2312033107960094e+14 -4.3423572691968873e+21 +1.2706232717179081e+28 
+3.9000000000000004e+00 +4.7160217156918058e+01 -3.4505676650526258e+06 +2.2301351682242681e+14 -4.3321667345738970e+21 +1.2452106377276566e+28 
+4.0000000000000000e+00 +4.7160214923336376e+01 -3.4503322471647612e+06 +2.2288702769076306e+14 -4.3206696637481621e+21 +1.2189515677076855e+28 
+4.1000000000000005e+00 +4.7160212292034863e+01 -3.4500897150647100e+06 +2.2275669386908200e+14 -4.3092737164052152e+21 +1.1958715778218638e+28 
+4.2000000000000002e+00 +4.7160209319793871e+01 -3.4498756963037853e+06 +2.2263419624536888e+14 -4.2989451920049318e+21 +1.1780618508030310e+28 
+4.2999999999999998e+00 +4.7160206088396123e+01 -3.4497212548059965e+06 +2.2253017030762375e+14 -4.2905393489279173e+21 +1.1671280555111368e+28 
+4.4000000000000004e+00 +4.7160202679628632e+01 -3.4496574600945003e+06 +2.2245525299842278e+14 -4.2849115719669111e+21 +1.1646762087904097e+28 
+4.5000000000000000e+00 +4.7160199175260011e+01 -3.4497153571258062e+06 +2.2242007479581228e+14 -4.2829166786693305e+21 +1.1723107543535143e+28 
+4.6000000000000005e+00 +4.7160195657087733e+01 -3.4499260289793331e+06 +2.2243527613946081e+14 -4.2854103566867466e+21 +1.1916385413868938e+28 
+4.7000000000000002e+00 +4.7160192206881533e+01 -3.4503205225335411e+06 +2.2251148809548869e+14 -4.2932474805426727e+21 +1.2242641828026119e+28 
+4.8000000000000007e+00 +4.7160188906448965e+01 -3.4509299337291522e+06 +2.2265935440295219e+14 -4.3072840226692043e+21 +1.2717953085400366e+28 
+4.9000000000000004e+00 +4.7160185837548070e+01 -3.4517852941590687e+06 +2.2288950212311816e+14 -4.3283745060549794e+21 +1.3358355549653031e+28 
+5.0000000000000000e+00 +4.7160183081967595e+01 -3.4529176754959407e+06 +2.2321256877088694e+14 -4.3573743670499879e+21 +1.4179910856944455e+28 
+5.1000000000000005e+00 +4.7160180696289174e+01 -3.4543442564239833e+06 +2.2363418030977266e+14 -4.3947082221186282e+21 +1.5189076676880847e+28 
+5.2000000000000002e+00 +4.7160178636151002e+01 -3.4560264952529664e+06 +2.2413987849475888e+14 -4.4390741378366633e+21 +1.6353805392545574e+28 
+5.3000000000000007e+00 +4.7160176832002193e+01 -3.4579119812287930e+06 +2.2471019987240769e+14 -4.4887399226908952e+21 +1.7632461132623715e+28 
+5.4000000000000004e+00 +4.7160175214277878e+01 -3.4599482844833033e+06 +2.2532567584426059e+14 -4.5419729256361823e+21 +1.8983395108291170e+28 
+5.5000000000000000e+00 +4.7160173713428442e+01 -3.4620829958454263e+06 +2.2596684336443569e+14 -4.5970409900158956e+21 +2.0364972391540588e+28 
+5.6000000000000005e+00 +4.7160172259879261e+01 -3.4642636738605108e+06 +2.2661423100671128e+14 -4.6522112292006710e+21 +2.1735537900313661e+28 
+5.7000000000000002e+00 +4.7160170784086020e+01 -3.4664379163342724e+06 +2.2724837753772225e+14 -4.7057516441984702e+21 +2.3053461052730928e+28 
+5.8000000000000007e+00 +4.7160169216468454e+01 -3.4685532727691042e+06 +2.2784980895677453e+14 -4.7559291121755373e+21 +2.4277080025675245e+28 
+5.9000000000000004e+00 +4.7160167487473721e+01 -3.4705573303889316e+06 +2.2839906133677409e+14 -4.8010114023290600e+21 +2.5364757889905505e+28 
+6.0000000000000000e+00 +4.7160165527556273e+01 -3.4723976852466133e+06 +2.2887667293020728e+14 -4.8392664668166978e+21 +2.6274862629886901e+28 
+6.1000000000000005e+00 +4.7160163278642329e+01 -3.4740291885618749e+06 +2.2926701660608328e+14 -4.8693303867058663e+21 +2.6974887521871650e+28 
+6.2000000000000002e+00 +4.7160160728685518e+01 -3.4754358983136499e+06 +2.2956985221087619e+14 -4.8913159845720936e+21 +2.7468943571720304e+28 
+6.3000000000000007e+00 +4.7160157877154809e+01 -3.4766091832530908e+06 +2.2978878841670838e+14 -4.9057054349686378e+21 +2.7770300549933929e+28 
+6.4000000000000004e+00 +4.7160154723515966e+01 -3.4775404089614451e+06 +2.2992743325407678e+14 -4.9129808669441293e+21 +2.7892227167456482e+28 
+6.5000000000000000e+00 +4.7160151267216776e+01 -3.4782209177727099e+06 +2.2998938870362038e+14 -4.9136238816468434e+21 +2.7847977543459438e+28 
+6.6000000000000005e+00 +4.7160147507711805e+01 -3.4786420604675398e+06 +2.2997825890308694e+14 -4.9081162664090911e+21 +2.7650810908006756e+28 
+6.7000000000000002e+00 +4.7160143444477278e+01 -3.4787952158187558e+06 +2.2989765522557159e+14 -4.8969404362495665e+21 +2.7314003763202811e+28 
+6.8000000000000007e+00 +4.7160139076960576e+01 -3.4786717263303399e+06 +2.2975117979545741e+14 -4.8805780102100864e+21 +2.6850810821442864e+28 
+6.9000000000000004e+00 +4.7160134404621743e+01 -3.4782629493726450e+06 +2.2954243840191119e+14 -4.8595109166458434e+21 +2.6274495157846270e+28 
+7.0000000000000000e+00 +4.7160129426922488e+01 -3.4775602445223359e+06 +2.2927503738873803e+14 -4.8342211302615689e+21 +2.5598321079436229e+28 
+7.1000000000000005e+00 +4.7160124158242240e+01 -3.4765652156069670e+06 +2.2895309909182588e+14 -4.8051635236991696e+21 +2.4834156305854940e+28 
+7.2000000000000002e+00 +4.7160118672559449e+01 -3.4753203451865129e+06 +2.2858278371511081e+14 -4.7726822584180969e+21 +2.3988218100011018e+28 
+7.3000000000000007e+00 +4.7160113058788070e+01 -3.4738783805111009e+06 +2.2817077236172309e+14 -4.7370947988972823e+21 +2.3065337899090151e+28 
+7.4000000000000004e+00 +4.7160107405831390e+01 -3.4722920564417783e+06 +2.2772374312150084e+14 -4.6987183576069812e+21 +2.2070340367975389e+28 
+7.5000000000000000e+00 +4.7160101802601183e+01 -3.4706141187836831e+06 +2.2724837696306834e+14 -4.6578704017002799e+21 +2.1008057301404156e+28 
+7.6000000000000005e+00 +4.7160096337999583e+01 -3.4688972990082828e+06 +2.2675135080141369e+14 -4.6148680242971919e+21 +1.9883309740737307e+28 
+7.7000000000000002e+00 +4.7160091100925783e+01 -3.4671943281370890e+06 +2.2623934199285597e+14 -4.5700283905442143e+21 +1.8700921380733454e+28 
+7.8000000000000007e+00 +4.7160086180307260e+01 -3.4655579696569494e+06 +2.2571903566417916e+14 -4.5236693042683797e+21 +1.7465732812221324e+28 
+7.9000000000000004e+00 +4.7160081665023654e+01 -3.4640409290244658e+06 +2.2519710247584703e+14 -4.4761073430553895e+21 +1.6182551412766216e+28 
+8.0000000000000000e+00 +4.7160077643993340e+01 -3.4626959601675514e+06 +2.2468022541126344e+14 -4.4276601430899168e+21 +1.4856213506553676e+28 
+8.0999999999999996e+00 +4.7160074160475723e+01 -3.4615640084912558e+06 +2.2417581638558009e+14 -4.3788355762802718e+21 +1.3498367358804971e+28 
+8.2000000000000011e+00 +4.7160071075164737e+01 -3.4606388838782678e+06 +2.2369422979223384e+14 -4.3309048525670554e+21 +1.2147976358115826e+28 
+8.3000000000000007e+00 +4.7160068203070828e+01 -3.4599025565176345e+06 +2.2324654097509819e+14 -4.2853287289472203e+21 +1.0850796946854445e+28 
+8.4000000000000004e+00 +4.7160065359260152e+01 -3.4593370677368245e+06 +2.2284384358251484e+14 -4.2435695478031594e+21 +9.6526291726392448e+27 
+8.5000000000000000e+00 +4.7160062358759667e+01 -3.4589244092003396e+06 +2.2249721849067338e+14 -4.2070885442071885e+21 +8.5992425891666339e+27 
+8.5999999999999996e+00 +4.7160059016610617e+01 -3.4586465914843022e+06 +2.2221775160364900e+14 -4.1773473992940921e+21 +7.7364192380178707e+27 
+8.7000000000000011e+00 +4.7160055147839053e+01 -3.4584856043808088e+06 +2.2201652325184728e+14 -4.1558072985811922e+21 +7.1099272818574403e+27 
+8.8000000000000007e+00 +4.7160050567499546e+01 -3.4584234748141938e+06 +2.2190462339073688e+14 -4.1439302639772128e+21 +6.7655579262535849e+27 
+8.9000000000000004e+00 +4.7160045090623214e+01 -3.4584421994569106e+06 +2.2189313424096784e+14 -4.1431776529314213e+21 +6.7490842356440922e+27 
+9.0000000000000000e+00 +4.7160038532254475e+01 -3.4585237929172385e+06 +2.2199314265832353e+14 -4.1550112218831745e+21 +7.1062901605099178e+27 
+9.0999999999999996e+00 +4.7160030775402618e+01 -3.4586530947468192e+06 +2.2221058131752962e+14 -4.1802684521909579e+21 +7.8641975527455983e+27 
+9.2000000000000011e+00 +4.7160021974981667e+01 -3.4588263064480526e+06 +2.2253078249250353e+14 -4.2172911449222000e+21 +8.9748189045547502e+27 
+9.3000000000000007e+00 +4.7160012353904790e+01 -3.4590424991127891e+06 +2.2293393577440466e+14 -4.2637978190941095e+21 +1.0371431828582398e+28 
+9.4000000000000004e+00 +4.7160002135050853e+01 -3.4593007001589476e+06 +2.2340021959169453e+14 -4.3175060324644700e+21 +1.1987287619406566e+28 
+9.5000000000000000e+00 +4.7159991541326725e+01 -3.4595999729952603e+06 +2.2390982162594947e+14 -4.3761341427820601e+21 +1.3755659535771831e+28 
+9.6000000000000014e+00 +4.7159980795624691e+01 -3.4599393621343547e+06 +2.2444292466944238e+14 -4.4374000828933698e+21 +1.5609809124293770e+28 
+9.7000000000000011e+00 +4.7159970120855078e+01 -3.4603179349365835e+06 +2.2497971736619591e+14 -4.4990222912764605e+21 +1.7483011818788768e+28 
+9.8000000000000007e+00 +4.7159959739888066e+01 -3.4607347079482349e+06 +2.2550037538269109e+14 -4.5587180885208072e+21 +1.9308512430664092e+28 
+9.9000000000000004e+00 +4.7159949875652181e+01 -3.4611887722266833e+06 +2.2598509345285059e+14 -4.6142064380244294e+21 +2.1019600759330160e+28 
+1.0000000000000000e+01 +4.7159940751025211e+01 -3.4616791538111642e+06 +2.2641404967991128e+14 -4.6632048717242601e+21 +2.2549527441857676e+28 
+1.0100000000000001e+01 +4.7159932532884653e+01 -3.4622053333125827e+06 +2.2677209411552025e+14 -4.7039450873249027e+21 +2.3845718834980795e+28 
+1.0200000000000001e+01 +4.7159925164075602e+01 -3.4627685746641760e+06 +2.2706275641933822e+14 -4.7367147834612877e+21 +2.4912286871606684e+28 
+1.0300000000000001e+01 +4.7159918531418171e+01 -3.4633705629273690e+06 +2.2729422950600691e+14 -4.7623150705978355e+21 +2.5767498490395867e+28 
+1.0400000000000000e+01 +4.7159912521745639e+01 -3.4640130019296003e+06 +2.2747471125615141e+14 -4.7815474942391269e+21 +2.6429632662382840e+28 
+1.0500000000000000e+01 +4.7159907021871462e+01 -3.4646975717270160e+06 +2.2761239372156453e+14 -4.7952131119805807e+21 +2.6916955266651979e+28 
+1.0600000000000001e+01 +4.7159901918618530e+01 -3.4654259591258513e+06 +2.2771546998461741e+14 -4.8041130333742091e+21 +2.7247732929981574e+28 
+1.0700000000000001e+01 +4.7159897098806354e+01 -3.4661998517028163e+06 +2.2779213396925084e+14 -4.8090484738581133e+21 +2.7440235782543915e+28 
+1.0800000000000001e+01 +4.7159892449272668e+01 -3.4670209581645676e+06 +2.2785058473610175e+14 -4.8108210777117195e+21 +2.7512745454566401e+28 
+1.0900000000000000e+01 +4.7159887856824341e+01 -3.4678909477386572e+06 +2.2789901123774653e+14 -4.8102316179948107e+21 +2.7483519710987844e+28 
+1.1000000000000000e+01 +4.7159883208293515e+01 -3.4688115230705077e+06 +2.2794561114523147e+14 -4.8080816280531160e+21 +2.7370837307130060e+28 
+1.1100000000000001e+01 +4.7159878407503548e+01 -3.4697783734133909e+06 +2.2799598357848153e+14 -4.8049593110026602e+21 +2.7188574905537288e+28 
+1.1200000000000001e+01 +4.7159873426347943e+01 -3.4707632755776201e+06 +2.2804537079119272e+14 -4.8006028408457370e+21 +2.6933092435751575e+28 
+1.1300000000000001e+01 +4.7159868253749089e+01 -3.4717320429073395e+06 +2.2808642950053419e+14 -4.7945381948140227e+21 +2.6596378991128516e+28 
+1.1400000000000000e+01 +4.7159862878587447e+01 -3.4726504343905826e+06 +2.2811180243646831e+14 -4.7862901421380511e+21 +2.6170390545275991e+28 
+1.1500000000000000e+01 +4.7159857289780263e+01 -3.4734842570199263e+06 +2.2811414475329706e+14 -4.7753845295209083e+21 +2.5647112701120446e+28 
+1.1600000000000001e+01 +4.7159851476215216e+01 -3.4741992788129663e+06 +2.2808610144244819e+14 -4.7613463177102906e+21 +2.5018506607374705e+28 
+1.1700000000000001e+01 +4.7159845426814194e+01 -3.4747613123758468e+06 +2.2802032904592881e+14 -4.7437014705479730e+21 +2.4276561034245485e+28 
+1.1800000000000001e+01 +4.7159839130467617e+01 -3.4751361299935542e+06 +2.2790947376555372e+14 -4.7219750596529713e+21 +2.3413240290477485e+28 
+1.1900000000000000e+01 +4.7159832576084156e+01 -3.4752895274529182e+06 +2.2774618784504072e+14 -4.6956926786601254e+21 +2.2420523008228962e+28 
+1.2000000000000000e+01 +4.7159825752565567e+01 -3.4751872901615510e+06 +2.2752312067348725e+14 -4.6643796648056938e+21 +2.1290380604558196e+28 
+1.2100000000000001e+01 +4.7159818653708349e+01 -3.4748083241014713e+06 +2.2723651774925000e+14 -4.6278758238821302e+21 +2.0023314258476282e+28 
+1.2200000000000001e+01 +4.7159811292908792e+01 -3.4741840309413658e+06 +2.2689701080286244e+14 -4.5872789045091846e+21 +1.8653944478508826e+28 
+1.2300000000000001e+01 +4.7159803688477417e+01 -3.4733589565628381e+06 +2.2651883364107453e+14 -4.5440016355716744e+21 +1.7225435526819141e+28 
+1.2400000000000000e+01 +4.7159795858687843e+01 -3.4723775997660463e+06 +2.2611620793742319e+14 -4.4994556938213392e+21 +1.5780922700969590e+28 
+1.2500000000000000e+01 +4.7159787821833241e+01 -3.4712844833211550e+06 +2.2570336144551153e+14 -4.4550532786826736e+21 +1.4363555608898896e+28 
+1.2600000000000001e+01 +4.7159779596222009e+01 -3.4701241505532679e+06 +2.2529452727032812e+14 -4.4122070543228548e+21 +1.3016496641638164e+28 
+1.2700000000000001e+01 +4.7159771200138621e+01 -3.4689411128962249e+06 +2.2490393019074653e+14 -4.3723289592407177e+21 +1.1782888169759354e+28 
+1.2800000000000001e+01 +4.7159762651882311e+01 -3.4677799026835253e+06 +2.2454580065770791e+14 -4.3368314388191851e+21 +1.0705886789994520e+28 
+1.2900000000000000e+01 +4.7159753969740486e+01 -3.4666850357047538e+06 +2.2423436461414388e+14 -4.3071265333589144e+21 +9.8286376752840855e+27 
+1.3000000000000000e+01 +4.7159745172005984e+01 -3.4657010331806643e+06 +2.2398384924191984e+14 -4.2846263833499748e+21 +9.1942886385965141e+27 
+1.3100000000000001e+01 +4.7159736274366381e+01 -3.4648649118503695e+06 +2.2380516905374781e+14 -4.2703731406465086e+21 +8.8337092889486089e+27 
+1.3200000000000001e+01 +4.7159727281967157e+01 -3.4641834914327129e+06 +2.2369593860251659e+14 -4.2639245671152296e+21 +8.7285314006132056e+27 
+1.3300000000000001e+01 +4.7159718197360831e+01 -3.4636561024424005e+06 +2.2365046367034056e+14 -4.2644687730394682e+21 +8.8481178185559103e+27 
+1.3400000000000000e+01 +4.7159709023110025e+01 -3.4632820870457776e+06 +2.2366305281394888e+14 -4.2711940954451807e+21 +9.1618373539667508e+27 
+1.3500000000000000e+01 +4.7159699761733599e+01 -3.4630607311959863e+06 +2.2372800020205459e+14 -4.2832876324216578e+21 +9.6390249118582291e+27 
+1.3600000000000001e+01 +4.7159690415795900e+01 -3.4629913786401330e+06 +2.2383961469397359e+14 -4.2999377411786859e+21 +1.0249049743815117e+28 
